# WELL TRACE FROM FRACMAN
# WELL NAME:              Well C
# WELL HEAD X-COORDINATE: 13.5717164 (m)
# WELL HEAD Y-COORDINATE: 7.5019878 (m)
# WELL DATUM (KB, Kelly bushing, from MSL): 910.7 (m)
# WELL TYPE:              UNDEFINED
# MD AND TVD ARE REFERENCED (=0) AT WELL DATUM AND INCREASE DOWNWARDS
# XYZ TRACE IS GIVEN IN COORDINATE SYSTEM <Undefined>
# DEPTH (Z, tvd_z) GIVEN IN m-UNITS
# MD IS NOT EXACT (TRACE WAS NOT IMPORTED WITH MD-DATA)
#======================================================================================================================================
      MD              X              Y             Z           
#======================================================================================================================================
    0.000000      13.571716       7.501988     910.700000
   11.650000      13.571716       7.501988     899.050000
   68.999994      13.469320       7.611795     841.700198
   88.400003      13.296421       7.511730     822.301219
   97.600004      13.223053       7.428714     813.101886
  106.999996      13.147903       7.211695     803.704700
  116.300001      13.083702       6.916747     794.409595
  125.700001      12.889450       6.574385     785.017841
  134.999993      12.668572       6.181106     775.728793
  144.299996      12.434569       5.670942     766.445743
  153.599999      12.205667       5.084745     757.167056
  162.999999      11.993978       4.397066     747.794635
  173.620001      11.682421       3.525484     737.215045
  181.699993      11.403389       2.807582     729.171848
  209.600000      10.422283       0.117862     701.419131
  237.600006       9.347199      -2.525781     673.564944
  265.599993       8.215576      -5.261811     645.721942
  293.600000       7.157343      -7.690941     617.847583
  321.600008       6.255430     -10.264961     589.980731
  349.600008       5.373300     -12.799518     562.109637
  377.599998       4.496801     -15.377164     534.242328
  405.600010       3.797072     -17.957939     506.370288
  410.270005       3.678115     -18.387758     501.721637
  410.420013       3.674292     -18.401563     501.572314
  434.700006       2.992739     -20.626655     477.404102
  463.800010       2.079001     -23.181436     448.430865
  493.000009       1.288605     -25.834457     419.362384
  521.899988       0.389497     -28.465030     390.596423
  550.999992      -0.606367     -31.124344     361.635303
  566.000017      -1.066171     -32.505760     346.706104
  583.000017      -1.518269     -34.083450     329.785510
  612.000009      -2.420444     -36.685840     300.916614
  640.799981      -3.288900     -39.046238     272.226672
  669.699972      -4.103178     -41.339325     243.429309
  698.600019      -5.016691     -43.545829     214.628101
  727.499994      -5.895800     -45.690384     185.821216
  756.800001      -6.771795     -47.892784     156.617236
  785.799981      -7.625116     -49.898216     127.699268
  815.099983      -8.490805     -51.950584      98.484058
  844.400024      -9.466595     -53.769664      69.256824
  868.779973     -10.327381     -55.558246      44.957813
  869.030013     -10.336222     -55.576629      44.708606
  873.599996     -10.499525     -55.922413      40.154651
  902.500015     -11.549190     -58.355030      11.376331
  931.699983     -12.606501     -60.753406     -17.705762
  960.500011     -13.621468     -63.010753     -46.399243
  989.400005     -14.713526     -65.297222     -75.187939
 1018.399997     -15.824987     -67.425968    -104.088330
 1047.300029     -16.836840     -69.460765    -132.898877
 1076.300010     -17.749107     -71.974025    -161.775342
 1105.200021     -18.798496     -74.542911    -190.541821
 1134.099979     -19.804466     -76.939533    -219.324658
 1162.999969     -20.710152     -79.230533    -248.119458
 1191.799985     -21.537960     -81.531116    -276.815503
 1210.340011     -21.972374     -82.990184    -295.292920
 1210.389985     -21.973545     -82.994121    -295.342725
 1220.899964     -22.187794     -83.813114    -305.818555
 1247.310015     -21.962788     -85.854480    -332.148633
 1247.460005     -21.961487     -85.866069    -332.298169
 1250.100030     -21.930901     -86.070003    -334.930127
 1279.000046     -21.002174     -88.454517    -363.716626
 1308.099993     -19.242927     -91.275379    -392.626050
 1309.570033     -19.152832     -91.418010    -394.086377
 1309.730025     -19.143028     -91.433529    -394.245312
 1337.299987     -17.027309     -94.147380    -421.599683
 1366.400035     -14.470758     -96.554027    -450.487134
 1395.300019     -12.054644     -98.699909    -479.205884
 1402.230042     -11.488373     -99.205677    -486.094189
 1402.379992     -11.476120     -99.216625    -486.243237
 1424.300010      -9.815994    -100.728809    -508.047925
 1453.300052      -7.816133    -102.585895    -536.919263
 1460.529974      -7.330873    -103.033680    -544.118970
 1460.680014      -7.320805    -103.042972    -544.268384
 1478.400044      -6.215513    -104.045192    -561.925488
 1478.750037      -6.193726    -104.064937    -562.274243
 1482.199946      -5.982132    -104.255993    -565.712354
 1507.789941      -4.323120    -105.386844    -591.223462
 1507.840022      -4.319874    -105.389057    -591.273389
 1511.099982      -4.106848    -105.528560    -594.523389
 1539.999986      -1.610839    -106.503223    -623.298901
 1568.900010       1.042371    -106.840282    -652.074902
 1597.799952       3.152161    -106.368686    -680.893872
 1626.700007       5.372475    -105.669475    -709.700024
 1655.700032       7.788503    -104.980343    -738.591016
 1684.500020       9.927162    -104.405689    -767.305737
 1712.550048      11.896420    -103.467662    -795.270825
 1712.899984      11.920962    -103.455906    -795.619702
 1713.499946      11.962963    -103.435581    -796.217847
 1742.400020      14.074415    -101.697506    -824.988232
 1771.299989      16.798832     -99.124752    -853.644238
 1800.200000      19.239456     -96.489116    -882.320142
 1829.100004      21.209149     -93.551265    -911.002881
 1847.450042      22.370048     -91.337261    -929.181836
 1847.800001      22.392170     -91.294895    -929.528516
 1858.000018      23.009191     -89.952160    -939.620923
 1859.570051      23.102455     -89.745601    -941.174512
 1859.620012      23.105421     -89.739032    -941.223950
 1887.100051      24.212310     -86.167667    -968.448437
 1912.009975      25.060284     -83.162990    -993.161938
 1912.060052      25.061987     -83.156955    -993.211621
 1915.900043      25.188905     -82.699619    -997.022168
 1921.079963      25.358509     -82.076664   -1002.161694
 1921.130036      25.360148     -82.070644   -1002.211377
 1928.030020      25.583157     -81.230152   -1009.056348
 1928.180020      25.588004     -81.211879   -1009.205151
 1934.230047      25.781263     -80.466747   -1015.206006
 1934.280013      25.782858     -80.460598   -1015.255566
 1945.000025      26.118437     -79.113666   -1025.885327
 1973.999944      27.140267     -75.193607   -1054.600903
 2003.200000      28.185967     -71.381633   -1083.532178
 2032.399967      29.138758     -68.205822   -1112.543286
 2061.399976      30.120863     -65.089084   -1141.358594
 2090.699918      31.126051     -61.662716   -1170.440137
 2119.799879      32.176519     -57.772205   -1199.259717
 2148.700010      33.278545     -53.971576   -1227.887646
 2177.599926      34.185904     -51.016658   -1256.621777
 2188.279942      34.505682     -49.891082   -1267.237500
 2188.529983      34.513155     -49.864727   -1267.486035
 2196.330058      34.737894     -49.024814   -1275.237500
 2196.679896      34.747957     -48.987125   -1275.585156
 2206.599919      35.019575     -47.890392   -1285.440625
 2235.500054      35.779568     -44.164898   -1314.089551
 2264.400009      36.263676     -40.272716   -1342.722119
 2287.020010      36.637894     -37.391391   -1365.154736
 2287.069985      36.638722     -37.385025   -1365.204297
 2293.300001      36.741489     -36.603374   -1371.384229
 2320.310049      37.010927     -33.774109   -1398.244336
 2320.460048      37.012415     -33.758426   -1398.393506
 2322.199891      37.028950     -33.578823   -1400.123975
 2335.379943      37.144587     -32.293281   -1413.240674
 2335.429989      37.145025     -32.288398   -1413.290479
 2351.099962      37.269268     -30.865429   -1428.895215
 2360.439937      37.328613     -30.064956   -1438.200635
 2360.489927      37.328932     -30.060665   -1438.250439
 2379.999948      37.388424     -28.592239   -1457.705029
 2408.399891      37.421057     -26.923099   -1486.055859
 2437.799984      37.441933     -25.563953   -1515.424512
 2451.670062      37.439266     -24.927517   -1529.279980
 2452.119998      37.439169     -24.906871   -1529.729443
 2457.680054      37.435963     -24.651764   -1535.283643
 2458.030032      37.435753     -24.635708   -1535.633252
 2466.799942      37.425468     -24.234949   -1544.393994
 2495.700064      37.299572     -22.122108   -1573.216504
 2516.800091      37.202440     -20.506258   -1594.254346
 2517.149999      37.200829     -20.479461   -1594.603223
 2524.700064      37.165419     -19.892103   -1602.130322
 2525.830012      37.160517     -19.803585   -1603.256787
 2526.080050      37.159452     -19.784000   -1603.506055
 2553.600102      37.279759     -17.297489   -1630.913281
 2582.500031      37.487017     -14.454780   -1659.672314
 2598.690012      37.621502     -12.866539   -1675.783643
 2599.139952      37.625240     -12.822395   -1676.231396
 2611.399986      37.737793     -11.622774   -1688.432080
 2640.400015      37.963730      -8.897943   -1717.302930
 2643.349925      37.987173      -8.623375   -1720.239941
 2643.799892      37.990772      -8.581485   -1720.687939
 2669.300027      38.231459      -6.394377   -1746.092969
 2698.299968      38.557709      -4.213988   -1775.008984
 2727.100097      38.848528      -2.160308   -1803.734326
 2756.099916      39.155285      -0.319309   -1832.674023
 2785.000063      39.391455       1.469753   -1861.517773
 2813.899900      39.635117       3.100136   -1890.370557
 2834.829900      39.797451       4.139149   -1911.274121
 2835.079970      39.799387       4.151521   -1911.523877
 2839.789899      39.835213       4.377968   -1916.228223
 2839.840007      39.835594       4.380376   -1916.278271
 2842.799910      39.857794       4.519600   -1919.234814
 2871.699942      40.156775       6.772350   -1948.045361
 2900.699976      40.960678      10.105471   -1976.841992
 2929.600065      41.840046      14.732828   -2005.355664
 2958.499931      42.782967      19.565717   -2033.832959
 2987.400045      43.734459      24.336134   -2062.320752
 3016.399992      44.221684      29.628434   -2090.829541
 3045.299906      44.738310      34.974251   -2119.226025
 3074.300098      45.300501      40.314167   -2147.724805
 3080.259905      45.414253      41.405609   -2153.582715
 3080.719922      45.423035      41.489869   -2154.034863
 3084.430091      45.492992      42.166828   -2157.682080
 3084.789959      45.499779      42.232499   -2158.035840
 3103.200044      45.828915      45.529995   -2176.145215
 3132.099960      46.310612      50.505284   -2204.609570
 3143.469903      46.508217      52.454041   -2215.809521
 3143.719980      46.512562      52.496907   -2216.055859
 3145.750025      46.548172      52.844456   -2218.055615
 3146.210013      46.556255      52.923203   -2218.508740
 3158.999902      46.791508      55.102917   -2231.109326
 3170.999950      46.976746      57.099717   -2242.940625
 3178.089943      47.073853      58.263428   -2249.933789
 3187.780099      47.047127      59.735600   -2259.511426
 3197.409994      46.945602      61.419651   -2268.992383
 3207.079910      46.832470      63.535958   -2278.427197
 3216.720100      46.699635      66.087620   -2287.722607
 3226.370086      46.623680      69.007683   -2296.919873
 3236.019988      46.601593      72.171597   -2306.036328
 3245.690051      46.659966      75.619191   -2315.070752
 3255.329907      46.757244      79.285176   -2323.985791
 3264.960079      46.754540      83.159047   -2332.802441
 3274.640099      46.674637      87.282841   -2341.559766
 3284.279913      46.653816      91.701138   -2350.127393
 3293.959956      46.740799      96.402195   -2358.588818
 3303.589932      46.904518     101.161908   -2366.958691
 3313.250007      46.961479     106.341984   -2375.112256
 3322.890064      46.870731     111.932370   -2382.965283
 3332.529980      46.655636     117.912373   -2390.523145
 3342.180023      46.494041     124.209446   -2397.833691
 3351.810034      46.440331     130.757161   -2404.894971
 3361.430062      46.376896     137.487599   -2411.768262
 3371.060045      46.380585     144.536213   -2418.329785
 3380.700076      46.437454     151.777027   -2424.693555
 3390.329924      46.431019     159.152897   -2430.884717
 3399.979933      46.464905     166.620442   -2436.996777
 3409.650066      46.638657     174.161030   -2443.048291
 3419.230039      46.881363     181.675221   -2448.985791
 3428.890039      47.165688     189.248707   -2454.975537
 3438.540019      47.459835     196.802449   -2460.973584
 3448.189991      47.813641     204.360981   -2466.962354
 3457.839981      48.245907     212.044514   -2472.784619
 3467.460068      48.568085     219.861882   -2478.382031
 3477.079930      48.820438     227.891865   -2483.673291
 3486.709964      48.995186     236.097477   -2488.710645
 3496.360022      49.167877     244.481358   -2493.486035
 3506.000039      49.296379     253.042012   -2497.916455
 3515.640023      49.336044     261.782948   -2501.981396
 3525.310016      49.309616     270.690098   -2505.745801
 3534.950025      49.284565     279.660496   -2509.275830
 3544.600044      49.240479     288.682042   -2512.701123
 3554.239999      49.085030     297.769413   -2515.914258
 3563.889991      48.893990     306.966221   -2518.830518
 3573.569979      48.717926     316.305485   -2521.370068
 3583.219969      48.616676     325.661747   -2523.730664
 3592.760025      48.587467     334.959843   -2525.865430
 3602.349983      48.569450     344.344395   -2527.839551
 3612.009985      48.484779     353.856694   -2529.520215
 3612.129992      48.483727     353.974888   -2529.540967
 3621.730008      48.433998     363.472264   -2530.940137
 3631.400000      48.432320     373.080479   -2532.031445
 3641.040005      48.435677     382.693852   -2532.747510
 3650.670002      48.363468     392.315129   -2533.150830
 3660.310011      48.193565     401.952397   -2533.305615
 3669.959989      48.023491     411.599522   -2533.143994
 3698.899993      47.060246     440.484074   -2531.634473
 3727.840000      47.125790     469.372471   -2529.908154
 3756.809984      47.732239     498.323948   -2529.069043
 3785.760011      48.873226     527.235386   -2530.033887
 3814.810014      50.266621     556.244236   -2529.364697
 3843.759990      52.457367     585.110691   -2529.536572
 3872.710018      54.677845     613.968418   -2528.900098
 3901.680005      56.416134     642.886143   -2528.960889
 3930.700000      57.560177     671.875035   -2529.664746
 3959.640008      58.357918     700.796360   -2530.331494
 3988.670011      59.689957     729.795079   -2530.128857
 4017.610008      61.158913     758.692906   -2529.598584
 4046.560005      60.769989     787.631016   -2530.331250
 4075.490014      60.628613     816.560582   -2530.255566
 4104.449994      60.502297     845.510228   -2529.492383
 4133.410018      60.764996     874.454930   -2528.587842
 4162.400028      60.764996     903.442112   -2528.183057
 4191.400001      60.861134     932.433018   -2527.464307
 4220.330022      61.259892     961.351780   -2526.762646
 4249.310012      60.976780     990.317173   -2525.887646
 4278.210006      60.372036    1019.187352   -2524.722852
 4307.040044      59.406555    1047.988072   -2523.852490
 4335.969970      59.250061    1076.912144   -2523.291943
 4364.910045      58.911671    1105.848545   -2522.978711
 4393.829950      58.498146    1134.740757   -2521.782910
 4422.810010      57.790119    1163.711460   -2521.580518
 4451.750020      56.315933    1192.612706   -2521.843213
 4480.699983      55.043163    1221.532261   -2521.469434
 4509.669971      54.133194    1250.487950   -2521.454297
 4538.619954      53.163345    1279.418858   -2521.858594
 4567.629947      52.155972    1308.411290   -2521.797803
 4596.609979      51.685719    1337.380162   -2522.450146
 4625.529962      51.125481    1366.294712   -2522.435010
 4654.459953      50.943710    1395.224034   -2522.359326
 4683.230037      50.978855    1423.989537   -2522.871533
 4712.179963      51.302151    1452.931309   -2523.477734
 4740.989940      51.503204    1481.729771   -2524.267041
 4769.870059      51.770348    1510.608555   -2524.191357
 4798.810005      51.270344    1539.543248   -2524.423779
 4827.479959      50.800068    1568.205235   -2524.909131
 4856.200046      50.409424    1596.898716   -2526.081738
 4885.130060      50.086365    1625.819249   -2526.748242
 4913.949991      49.583397    1654.634190   -2526.934277
 4942.789989      49.301575    1683.467686   -2526.390576
 4971.780002      48.669178    1712.449986   -2526.173047
 5000.700042      47.725468    1741.354527   -2526.248730
 5029.689971      46.622894    1770.318882   -2525.732617
 5058.630041      45.790173    1799.226963   -2524.656934
 5087.580047      46.169117    1828.174473   -2524.687207
 5116.510038      47.097790    1857.082554   -2524.050977
 5145.399991      48.347805    1885.943760   -2523.738477
 5174.379974      49.662266    1914.890416   -2524.188672
 5203.319963      50.652039    1943.812657   -2524.405957
 5232.269975      52.010700    1972.730259   -2524.577832
 5261.180007      53.029728    2001.622227   -2524.502148
 5290.120056      53.903412    2030.548985   -2524.577832
 5318.999965      54.084858    2059.426792   -2524.280469
 5348.000022      53.882408    2088.425328   -2524.497998
 5376.849979      53.424263    2117.268834   -2524.095166
 5405.819984      52.878223    2146.233677   -2524.064893
 5434.839912      52.037571    2175.241001   -2524.221875
 5463.869968      50.948490    2204.250523   -2524.145947
 5492.730050      49.262474    2233.053990   -2524.795605
 5521.670085      47.415192    2261.933140   -2525.123975
 5550.629970      45.978218    2290.797886   -2523.270215
 5579.569932      45.514271    2319.689000   -2521.654736
 5608.579915      46.283756    2348.687535   -2521.386426
 5637.550075      47.309834    2377.636021   -2520.936475
 5666.479993      48.132259    2406.537144   -2519.942090
 5695.460058      48.829849    2435.494664   -2519.036816
 5724.490043      49.468060    2464.511265   -2518.428906
 5753.440086      49.932880    2493.457066   -2518.257031
 5782.480092      50.480187    2522.489292   -2517.866895
 5811.410016      51.005253    2551.413121   -2517.589307
 5840.339969      51.323109    2580.319615   -2516.468701
 5869.130109      51.865475    2609.089634   -2515.539258
 5898.150115      52.508659    2638.102085   -2515.382275
 5927.070047      52.826630    2667.019078   -2515.644727
 5956.019946      52.963051    2695.968052   -2515.457715
 5984.969901      52.942848    2724.908726   -2514.725049
 6013.940063      52.508461    2753.846714   -2513.431104
 6041.999986      51.917118    2781.843785   -2511.649609
 6062.999902      51.474743    2802.787876   -2510.184766
